frequency,inoise_spectrum
1.00000000e+03,1.40758258e-06
1.12201845e+03,1.34123112e-06
1.25892541e+03,1.27801692e-06
1.41253754e+03,1.21779212e-06
1.58489319e+03,1.16041583e-06
1.77827941e+03,1.10575385e-06
1.99526231e+03,1.05367832e-06
2.23872114e+03,1.00406741e-06
2.51188643e+03,9.56805088e-07
2.81838293e+03,9.11780786e-07
3.16227766e+03,8.68889187e-07
3.54813389e+03,8.28029958e-07
3.98107171e+03,7.89107520e-07
4.46683592e+03,7.52030824e-07
5.01187234e+03,7.16713136e-07
5.62341325e+03,6.83071838e-07
6.30957344e+03,6.51028229e-07
7.07945784e+03,6.20507348e-07
7.94328235e+03,5.91437792e-07
8.91250938e+03,5.63751552e-07
1.00000000e+04,5.37383852e-07
1.12201845e+04,5.12272999e-07
1.25892541e+04,4.88360236e-07
1.41253754e+04,4.65589609e-07
1.58489319e+04,4.43907827e-07
1.77827941e+04,4.23264147e-07
1.99526231e+04,4.03610247e-07
2.23872114e+04,3.84900116e-07
2.51188643e+04,3.67089944e-07
2.81838293e+04,3.50138021e-07
3.16227766e+04,3.34004634e-07
3.54813389e+04,3.18651980e-07
3.98107171e+04,3.04044067e-07
4.46683592e+04,2.90146638e-07
5.01187234e+04,2.76927081e-07
5.62341325e+04,2.64354357e-07
6.30957344e+04,2.52398922e-07
7.07945784e+04,2.41032656e-07
7.94328235e+04,2.30228795e-07
8.91250938e+04,2.19961865e-07
1.00000000e+05,2.10207620e-07
1.12201845e+05,2.00942980e-07
1.25892541e+05,1.92145974e-07
1.41253754e+05,1.83795685e-07
1.58489319e+05,1.75872194e-07
1.77827941e+05,1.68356529e-07
1.99526231e+05,1.61230615e-07
2.23872114e+05,1.54477225e-07
2.51188643e+05,1.48079934e-07
2.81838293e+05,1.42023072e-07
3.16227766e+05,1.36291679e-07
3.54813389e+05,1.30871467e-07
3.98107171e+05,1.25748772e-07
4.46683592e+05,1.20910520e-07
5.01187234e+05,1.16344184e-07
5.62341325e+05,1.12037750e-07
6.30957344e+05,1.07979682e-07
7.07945784e+05,1.04158885e-07
7.94328235e+05,1.00564678e-07
8.91250938e+05,9.71867602e-08
1.00000000e+06,9.40151878e-08
1.12201845e+06,9.10403470e-08
1.25892541e+06,8.82529327e-08
1.41253754e+06,8.56439287e-08
1.58489319e+06,8.32045918e-08
1.77827941e+06,8.09264373e-08
1.99526231e+06,7.88012283e-08
2.23872114e+06,7.68209673e-08
2.51188643e+06,7.49778903e-08
2.81838293e+06,7.32644628e-08
3.16227766e+06,7.16733778e-08
3.54813389e+06,7.01975552e-08
3.98107171e+06,6.88301427e-08
4.46683592e+06,6.75645157e-08
5.01187234e+06,6.63942794e-08
5.62341325e+06,6.53132683e-08
6.30957344e+06,6.43155463e-08
7.07945784e+06,6.33954049e-08
7.94328235e+06,6.25473596e-08
8.91250938e+06,6.17661450e-08
1.00000000e+07,6.10467078e-08
1.12201845e+07,6.03841983e-08
1.25892541e+07,5.97739607e-08
1.41253754e+07,5.92115236e-08
1.58489319e+07,5.86925915e-08
1.77827941e+07,5.82130401e-08
1.99526231e+07,5.77689170e-08
2.23872114e+07,5.73564507e-08
2.51188643e+07,5.69720704e-08
2.81838293e+07,5.66124355e-08
3.16227766e+07,5.62744715e-08
3.54813389e+07,5.59554058e-08
3.98107171e+07,5.56527868e-08
4.46683592e+07,5.53644734e-08
5.01187234e+07,5.50885752e-08
5.62341325e+07,5.48233390e-08
6.30957344e+07,5.45669842e-08
7.07945784e+07,5.43175071e-08
7.94328235e+07,5.40724831e-08
8.91250938e+07,5.38288940e-08
1.00000000e+08,5.35830037e-08
1.12201845e+08,5.33302915e-08
1.25892541e+08,5.30654460e-08
1.41253754e+08,5.27824207e-08
1.58489319e+08,5.24745552e-08
1.77827941e+08,5.21347700e-08
1.99526231e+08,5.17558406e-08
2.23872114e+08,5.13307475e-08
2.51188643e+08,5.08530718e-08
2.81838293e+08,5.03173684e-08
3.16227766e+08,4.97194163e-08
3.54813389e+08,4.90562241e-08
3.98107171e+08,4.83256961e-08
4.46683592e+08,4.75259442e-08
5.01187234e+08,4.66543523e-08
5.62341325e+08,4.57066250e-08
6.30957344e+08,4.46761231e-08
7.07945784e+08,4.35537739e-08
7.94328235e+08,4.23287364e-08
8.91250938e+08,4.09898397e-08
1.00000000e+09,3.95276312e-08
1.12201845e+09,3.79367106e-08
1.25892541e+09,3.62179091e-08
1.41253754e+09,3.43798356e-08
1.58489319e+09,3.24393886e-08
1.77827941e+09,3.04210280e-08
1.99526231e+09,2.83548900e-08
2.23872114e+09,2.62741074e-08
2.51188643e+09,2.42118735e-08
2.81838293e+09,2.21987946e-08
3.16227766e+09,2.02609244e-08
3.54813389e+09,1.84186529e-08
3.98107171e+09,1.66864084e-08
4.46683592e+09,1.50729938e-08
5.01187234e+09,1.35823264e-08
5.62341325e+09,1.22143665e-08
6.30957344e+09,1.09660704e-08
7.07945784e+09,9.83226392e-09
7.94328235e+09,8.80638316e-09
8.91250938e+09,7.88106645e-09
1.00000000e+10,7.04860511e-09
1.12201845e+10,6.30127095e-09
1.25892541e+10,5.63154320e-09
1.41253754e+10,5.03225697e-09
1.58489319e+10,4.49669271e-09
1.77827941e+10,4.01862263e-09
1.99526231e+10,3.59232690e-09
2.23872114e+10,3.21258906e-09
2.51188643e+10,2.87467791e-09
2.81838293e+10,2.57432090e-09
3.16227766e+10,2.30767271e-09
3.54813389e+10,2.07128128e-09
3.98107171e+10,1.86205310e-09
4.46683592e+10,1.67721853e-09
5.01187234e+10,1.51429785e-09
5.62341325e+10,1.37106823e-09
6.30957344e+10,1.24553200e-09
7.07945784e+10,1.13588611e-09
7.94328235e+10,1.04049355e-09
8.91250938e+10,9.57856812e-10
1.00000000e+11,8.86594555e-10
1.12201845e+11,8.25421945e-10
1.25892541e+11,7.73135656e-10
1.41253754e+11,7.28603785e-10
1.58489319e+11,6.90760521e-10
1.77827941e+11,6.58604767e-10
1.99526231e+11,6.31201432e-10
2.23872114e+11,6.07683981e-10
2.51188643e+11,5.87257124e-10
2.81838293e+11,5.69198956e-10
3.16227766e+11,5.52862479e-10
3.54813389e+11,5.37676754e-10
3.98107171e+11,5.23147975e-10
4.46683592e+11,5.08860483e-10
5.01187234e+11,4.94477312e-10
5.62341325e+11,4.79739539e-10
6.30957344e+11,4.64463808e-10
7.07945784e+11,4.48537949e-10
7.94328235e+11,4.31915349e-10
8.91250938e+11,4.14609142e-10
1.00000000e+12,3.96686936e-10
